Ngày,KLNY,KLCPĐLH,Tham chiếu,Trần,Sàn,Tổng KLGD,Tổng GTGD,Vốn hóa TT,Mở cửa,Đóng cửa,Cao nhất,Thấp nhất,Chênh lệch,Bình quân,Giá đóng cửa điều chỉnh,+/- giá,+/- % giá,BQ mua,BQ bán,Dư mua,Dư bán,Khớp lệnh,Khớp lệnh,Tổng lệnh đặt,Tổng lệnh đặt,Tổng lệnh đặt,Tổng KL đặt,Tổng KL đặt,Tổng KL đặt,Thỏa thuận,Thỏa thuận
Ngày,KLNY,KLCPĐLH,Tham chiếu,Trần,Sàn,Tổng KLGD,Tổng GTGD,Vốn hóa TT,Mở cửa,Đóng cửa,Cao nhất,Thấp nhất,Chênh lệch,Bình quân,Giá đóng cửa điều chỉnh,+/- giá,+/- % giá,BQ mua,BQ bán,Dư mua,Dư bán,KL,GT,Mua,Bán,Mua - Bán,Mua,Bán,Mua - Bán,KL,GT
27/09/2024,3000000,3000000,23500,27000,20000,-,,71,23500,23500,23500,23500,-,23500,23500,,,50,100,100.0,100.0,,,2.0,1.0,1,100.0,100.0,-,-,
26/09/2024,3000000,3000000,23500,27000,20000,-,,71,23500,23500,23500,23500,-,23500,23500,,,-,-,,,,,,,-,,,-,-,
25/09/2024,3000000,3000000,23500,27000,20000,-,,71,23500,23500,23500,23500,-,23500,23500,,,-,100,,100.0,,,,1.0,-1,,100.0,-100,-,
24/09/2024,3000000,3000000,23500,27000,20000,-,,71,23500,23500,23500,23500,-,23500,23500,,,-,-,,,,,,,-,,,-,-,
23/09/2024,3000000,3000000,23500,27000,20000,-,,71,23500,23500,23500,23500,-,23500,23500,,,100,100,100.0,100.0,,,1.0,1.0,-,100.0,100.0,-,-,
20/09/2024,3000000,3000000,23500,27000,20000,-,,71,23500,23500,23500,23500,-,23500,23500,,,-,100,,100.0,,,,1.0,-1,,100.0,-100,-,
19/09/2024,3000000,3000000,23500,27000,20000,-,,71,23500,23500,23500,23500,-,23500,23500,,,-,100,,100.0,,,,1.0,-1,,100.0,-100,-,
18/09/2024,3000000,3000000,23500,27000,20000,-,,71,23500,23500,23500,23500,-,23500,23500,,,-,100,,100.0,,,,1.0,-1,,100.0,-100,-,
17/09/2024,3000000,3000000,23500,27000,20000,-,,71,23500,23500,23500,23500,-,23500,23500,,,50,-,100.0,,,,2.0,1.0,1,100.0,,100,-,
16/09/2024,3000000,3000000,20500,23500,17500,100,2.0,71,23500,23500,23500,23500,-,23500,23500,3000.0,14.63,100,100,100.0,,100.0,2.0,2.0,1.0,1,200.0,100.0,100,-,
13/09/2024,3000000,3000000,23900,27400,20400,3000,62.0,62,20500,20500,20500,20500,-,20500,20500,-3400.0,-14.23,1033,1067,100.0,200.0,3000.0,62.0,3.0,3.0,-,3100.0,3200.0,-100,-,
12/09/2024,3000000,3000000,23900,27400,20400,-,,72,23900,23900,23900,23900,-,23900,23900,,,-,50,,100.0,,,3.0,2.0,1,,100.0,-100,-,
11/09/2024,3000000,3000000,23900,27400,20400,-,,72,23900,23900,23900,23900,-,23900,23900,,,33,100,100.0,100.0,,,3.0,1.0,2,100.0,100.0,-,-,
10/09/2024,3000000,3000000,23900,27400,20400,-,,72,23900,23900,23900,23900,-,23900,23900,,,-,100,,100.0,,,,1.0,-1,,100.0,-100,-,
09/09/2024,3000000,3000000,23900,27400,20400,-,,72,23900,23900,23900,23900,-,23900,23900,,,-,100,,100.0,,,1.0,1.0,-,,100.0,-100,-,
06/09/2024,3000000,3000000,23900,27400,20400,-,,72,23900,23900,23900,23900,-,23900,23900,,,-,100,,100.0,,,1.0,1.0,-,,100.0,-100,-,
05/09/2024,3000000,3000000,23500,27000,20000,100,2.0,72,23900,23900,23900,23900,-,23900,23900,400.0,1.7,50,100,,100.0,100.0,2.0,2.0,2.0,-,100.0,200.0,-100,-,
04/09/2024,3000000,3000000,23500,27000,20000,-,,71,23500,23500,23500,23500,-,23500,23500,,,200,67,200.0,200.0,,,1.0,3.0,-2,200.0,200.0,-,-,
30/08/2024,3000000,3000000,23500,27000,20000,-,,71,23500,23500,23500,23500,-,23500,23500,,,100,100,100.0,200.0,,,1.0,2.0,-1,100.0,200.0,-100,-,
29/08/2024,3000000,3000000,23500,27000,20000,-,,71,23500,23500,23500,23500,-,23500,23500,,,-,100,,200.0,,,,2.0,-2,,200.0,-200,-,
28/08/2024,3000000,3000000,23500,27000,20000,-,,71,23500,23500,23500,23500,-,23500,23500,,,-,100,,200.0,,,,2.0,-2,,200.0,-200,-,
27/08/2024,3000000,3000000,23500,27000,20000,-,,71,23500,23500,23500,23500,-,23500,23500,,,-,100,,200.0,,,,2.0,-2,,200.0,-200,-,
26/08/2024,3000000,3000000,23500,27000,20000,-,,71,23500,23500,23500,23500,-,23500,23500,,,-,100,,200.0,,,,2.0,-2,,200.0,-200,-,
23/08/2024,3000000,3000000,23500,27000,20000,-,,71,23500,23500,23500,23500,-,23500,23500,,,-,100,,100.0,,,,1.0,-1,,100.0,-100,-,
22/08/2024,3000000,3000000,23500,27000,20000,-,,71,23500,23500,23500,23500,-,23500,23500,,,-,100,,200.0,,,,2.0,-2,,200.0,-200,-,
21/08/2024,3000000,3000000,23500,27000,20000,-,,71,23500,23500,23500,23500,-,23500,23500,,,-,100,,200.0,,,,2.0,-2,,200.0,-200,-,
20/08/2024,3000000,3000000,23500,27000,20000,2440,49.0,71,23500,23500,23500,23500,-,23500,23500,,,-,100,,200.0,,,,2.0,-2,,200.0,-200,2440,49.0
19/08/2024,3000000,3000000,23500,27000,20000,-,,71,23500,23500,23500,23500,-,23500,23500,,,-,100,,200.0,,,,2.0,-2,,200.0,-200,-,
16/08/2024,3000000,3000000,23500,27000,20000,-,,71,23500,23500,23500,23500,-,23500,23500,,,100,100,100.0,100.0,,,1.0,1.0,-,100.0,100.0,-,-,
15/08/2024,3000000,3000000,23500,27000,20000,-,,71,23500,23500,23500,23500,-,23500,23500,,,100,100,100.0,100.0,,,1.0,1.0,-,100.0,100.0,-,-,
14/08/2024,3000000,3000000,23500,27000,20000,-,,71,23500,23500,23500,23500,-,23500,23500,,,100,100,100.0,100.0,,,1.0,1.0,-,100.0,100.0,-,-,
13/08/2024,3000000,3000000,23500,27000,20000,-,,71,23500,23500,23500,23500,-,23500,23500,,,-,100,,100.0,,,,1.0,-1,,100.0,-100,-,
12/08/2024,3000000,3000000,23500,27000,20000,-,,71,23500,23500,23500,23500,-,23500,23500,,,100,100,100.0,100.0,,,1.0,1.0,-,100.0,100.0,-,-,
09/08/2024,3000000,3000000,23500,27000,20000,-,,71,23500,23500,23500,23500,-,23500,23500,,,300,100,300.0,100.0,,,1.0,1.0,-,300.0,100.0,200,-,
08/08/2024,3000000,3000000,23500,27000,20000,-,,71,23500,23500,23500,23500,-,23500,23500,,,100,100,100.0,100.0,,,1.0,1.0,-,100.0,100.0,-,-,
07/08/2024,3000000,3000000,23500,27000,20000,-,,71,23500,23500,23500,23500,-,23500,23500,,,100,100,100.0,100.0,,,1.0,1.0,-,100.0,100.0,-,-,
06/08/2024,3000000,3000000,23500,27000,20000,-,,71,23500,23500,23500,23500,-,23500,23500,,,100,100,200.0,100.0,,,2.0,1.0,1,200.0,100.0,100,-,
05/08/2024,3000000,3000000,23500,27000,20000,-,,71,23500,23500,23500,23500,-,23500,23500,,,100,100,100.0,100.0,,,1.0,1.0,-,100.0,100.0,-,-,
02/08/2024,3000000,3000000,23500,27000,20000,-,,71,23500,23500,23500,23500,-,23500,23500,,,100,100,100.0,100.0,,,1.0,1.0,-,100.0,100.0,-,-,
01/08/2024,3000000,3000000,23500,27000,20000,-,,71,23500,23500,23500,23500,-,23500,23500,,,100,100,100.0,100.0,,,1.0,1.0,-,100.0,100.0,-,-,
31/07/2024,3000000,3000000,23500,27000,20000,-,,71,23500,23500,23500,23500,-,23500,23500,,,100,100,100.0,100.0,,,1.0,1.0,-,100.0,100.0,-,-,
30/07/2024,3000000,3000000,23500,27000,20000,-,,71,23500,23500,23500,23500,-,23500,23500,,,100,100,100.0,100.0,,,1.0,1.0,-,100.0,100.0,-,-,
29/07/2024,3000000,3000000,23500,27000,20000,-,,71,23500,23500,23500,23500,-,23500,23500,,,100,100,100.0,100.0,,,1.0,1.0,-,100.0,100.0,-,-,
26/07/2024,3000000,3000000,23500,27000,20000,-,,71,23500,23500,23500,23500,-,23500,23500,,,100,100,100.0,100.0,,,1.0,1.0,-,100.0,100.0,-,-,
25/07/2024,3000000,3000000,25000,28700,21300,-,,75,25000,25000,25000,25000,-,25000,23500,,,100,100,200.0,100.0,,,2.0,1.0,1,200.0,100.0,100,-,
24/07/2024,3000000,3000000,17900,25000,10800,100,3.0,75,25000,25000,25000,25000,-,25000,23500,7100.0,39.66,217,100,1200.0,,100.0,3.0,6.0,1.0,5,1300.0,100.0,1200,-,
23/07/2024,3000000,3000000,17900,25000,10800,-,,54,17900,17900,17900,17900,-,17900,16800,,,400,100,2000.0,100.0,,,5.0,1.0,4,2000.0,100.0,1900,-,
22/07/2024,3000000,3000000,17900,25000,10800,-,,54,17900,17900,17900,17900,-,17900,16800,,,2020,-,10100.0,,,,5.0,,5,10100.0,,10100,-,
19/07/2024,3000000,3000000,17900,25000,10800,-,,54,17900,17900,17900,17900,-,17900,16800,,,367,-,1100.0,,,,3.0,,3,1100.0,,1100,-,
18/07/2024,3000000,3000000,17900,25000,10800,-,,54,17900,17900,17900,17900,-,17900,16800,,,100,-,100.0,,,,1.0,,1,100.0,,100,-,
17/07/2024,3000000,3000000,17900,25000,10800,-,,54,17900,17900,17900,17900,-,17900,16800,,,100,-,300.0,,,,3.0,,3,300.0,,300,-,
16/07/2024,3000000,3000000,17900,25000,10800,-,,54,17900,17900,17900,17900,-,17900,16800,,,75,-,300.0,,,,4.0,,4,300.0,,300,-,
15/07/2024,3000000,3000000,17900,25000,10800,-,,54,17900,17900,17900,17900,-,17900,16800,,,100,100,100.0,100.0,,,1.0,1.0,-,100.0,100.0,-,-,
12/07/2024,3000000,3000000,17900,25000,10800,-,,54,17900,17900,17900,17900,-,17900,16800,,,-,100,,100.0,,,,1.0,-1,,100.0,-100,-,
11/07/2024,3000000,3000000,17900,25000,10800,-,,54,17900,17900,17900,17900,-,17900,16800,,,-,-,,,,,,,-,,,-,-,
10/07/2024,3000000,3000000,17900,25000,10800,-,,54,17900,17900,17900,17900,-,17900,16800,,,-,-,,,,,,,-,,,-,-,
09/07/2024,3000000,3000000,17900,25000,10800,-,,54,17900,17900,17900,17900,-,17900,16800,,,-,-,,,,,,,-,,,-,-,
08/07/2024,3000000,3000000,17900,25000,10800,-,,54,17900,17900,17900,17900,-,17900,16800,,,-,-,,,,,,,-,,,-,-,
05/07/2024,3000000,3000000,17900,25000,10800,-,,54,17900,17900,17900,17900,-,17900,16800,,,-,-,,,,,,,-,,,-,-,
04/07/2024,3000000,3000000,17900,25000,10800,-,,54,17900,17900,17900,17900,-,17900,16800,,,-,-,,,,,,,-,,,-,-,
03/07/2024,3000000,3000000,17900,25000,10800,-,,54,17900,17900,17900,17900,-,17900,16800,,,100,100,100.0,100.0,,,1.0,1.0,-,100.0,100.0,-,-,
02/07/2024,3000000,3000000,17900,25000,10800,-,,54,17900,17900,17900,17900,-,17900,16800,,,-,-,,,,,,,-,,,-,-,
01/07/2024,3000000,3000000,17900,25000,10800,-,,54,17900,17900,17900,17900,-,17900,16800,,,-,-,,,,,,,-,,,-,-,
28/06/2024,3000000,3000000,17900,25000,10800,-,,54,17900,17900,17900,17900,-,17900,16800,,,100,-,100.0,,,,1.0,,1,100.0,,100,-,
27/06/2024,3000000,3000000,17900,25000,10800,-,,54,17900,17900,17900,17900,-,17900,16800,,,100,-,100.0,,,,1.0,,1,100.0,,100,-,
26/06/2024,3000000,3000000,17900,25000,10800,-,,54,17900,17900,17900,17900,-,17900,16800,,,100,100,200.0,100.0,,,2.0,1.0,1,200.0,100.0,100,-,
25/06/2024,3000000,3000000,17900,25000,10800,-,,54,17900,17900,17900,17900,-,17900,16800,,,100,-,100.0,,,,1.0,,1,100.0,,100,-,
24/06/2024,3000000,3000000,17900,25000,10800,-,,54,17900,17900,17900,17900,-,17900,16800,,,-,-,,,,,,,-,,,-,-,
21/06/2024,3000000,3000000,17900,25000,10800,-,,54,17900,17900,17900,17900,-,17900,16800,,,-,-,,,,,1.0,,1,,,-,-,
20/06/2024,3000000,3000000,17900,25000,10800,-,,54,17900,17900,17900,17900,-,17900,16800,,,-,-,,,,,1.0,,1,,,-,-,
19/06/2024,3000000,3000000,17900,25000,10800,-,,54,17900,17900,17900,17900,-,17900,16800,,,100,-,100.0,,,,1.0,,1,100.0,,100,-,
18/06/2024,3000000,3000000,17900,25000,10800,-,,54,17900,17900,17900,17900,-,17900,16800,,,300,-,600.0,,,,2.0,,2,600.0,,600,-,
17/06/2024,3000000,3000000,17900,25000,10800,-,,54,17900,17900,17900,17900,-,17900,16800,,,-,-,,,,,,,-,,,-,-,
14/06/2024,3000000,3000000,17900,25000,10800,-,,54,17900,17900,17900,17900,-,17900,16800,,,-,-,,,,,,,-,,,-,-,
13/06/2024,3000000,3000000,17900,25000,10800,-,,54,17900,17900,17900,17900,-,17900,16800,,,100,-,100.0,,,,1.0,,1,100.0,,100,-,
12/06/2024,3000000,3000000,17900,25000,10800,-,,54,17900,17900,17900,17900,-,17900,16800,,,100,-,100.0,,,,1.0,,1,100.0,,100,-,
11/06/2024,3000000,3000000,17900,25000,10800,-,,54,17900,17900,17900,17900,-,17900,16800,,,100,-,100.0,,,,1.0,,1,100.0,,100,-,
10/06/2024,3000000,3000000,17900,25000,10800,-,,54,17900,17900,17900,17900,-,17900,16800,,,100,-,100.0,,,,1.0,,1,100.0,,100,-,
07/06/2024,3000000,3000000,17900,25000,10800,-,,54,17900,17900,17900,17900,-,17900,16800,,,2550,-,5100.0,,,,2.0,,2,5100.0,,5100,-,
06/06/2024,3000000,3000000,17900,25000,10800,-,,54,17900,17900,17900,17900,-,17900,16800,,,-,-,,,,,,,-,,,-,-,
05/06/2024,3000000,3000000,17900,25000,10800,-,,54,17900,17900,17900,17900,-,17900,16800,,,-,-,,,,,,,-,,,-,-,
04/06/2024,3000000,3000000,17900,25000,10800,-,,54,17900,17900,17900,17900,-,17900,16800,,,-,-,,,,,,,-,,,-,-,
03/06/2024,3000000,3000000,17900,25000,10800,-,,54,17900,17900,17900,17900,-,17900,16800,,,100,-,100.0,,,,1.0,,1,100.0,,100,-,
31/05/2024,3000000,3000000,17900,25000,10800,-,,54,17900,17900,17900,17900,-,17900,16800,,,-,-,,,,,1.0,,1,,,-,-,
30/05/2024,3000000,3000000,17900,25000,10800,-,,54,17900,17900,17900,17900,-,17900,16800,,,50,100,100.0,100.0,,,2.0,1.0,1,100.0,100.0,-,-,
29/05/2024,3000000,3000000,17900,25000,10800,-,,54,17900,17900,17900,17900,-,17900,16800,,,-,-,,,,,,,-,,,-,-,
28/05/2024,3000000,3000000,17900,25000,10800,-,,54,17900,17900,17900,17900,-,17900,16800,,,-,-,,,,,,,-,,,-,-,
27/05/2024,3000000,3000000,17900,25000,10800,-,,54,17900,17900,17900,17900,-,17900,16800,,,-,-,,,,,,,-,,,-,-,
24/05/2024,3000000,3000000,17900,25000,10800,-,,54,17900,17900,17900,17900,-,17900,16800,,,-,-,,,,,,,-,,,-,-,
23/05/2024,3000000,3000000,17900,25000,10800,-,,54,17900,17900,17900,17900,-,17900,16800,,,-,-,,,,,,,-,,,-,-,
22/05/2024,3000000,3000000,17900,25000,10800,-,,54,17900,17900,17900,17900,-,17900,16800,,,100,-,100.0,,,,1.0,,1,100.0,,100,-,
21/05/2024,3000000,3000000,17900,25000,10800,-,,54,17900,17900,17900,17900,-,17900,16800,,,-,-,,,,,,,-,,,-,-,
20/05/2024,3000000,3000000,17900,25000,10800,-,,54,17900,17900,17900,17900,-,17900,16800,,,-,-,,,,,2.0,,2,,,-,-,
17/05/2024,3000000,3000000,17900,25000,10800,-,,54,17900,17900,17900,17900,-,17900,16800,,,100,-,100.0,,,,1.0,,1,100.0,,100,-,
16/05/2024,3000000,3000000,17900,25000,10800,-,,54,17900,17900,17900,17900,-,17900,16800,,,100,-,100.0,,,,1.0,,1,100.0,,100,-,
15/05/2024,3000000,3000000,17900,25000,10800,-,,54,17900,17900,17900,17900,-,17900,16800,,,67,100,200.0,100.0,,,3.0,1.0,2,200.0,100.0,100,-,
14/05/2024,3000000,3000000,17900,25000,10800,-,,54,17900,17900,17900,17900,-,17900,16800,,,100,-,100.0,,,,1.0,,1,100.0,,100,-,
13/05/2024,3000000,3000000,17900,25000,10800,-,,54,17900,17900,17900,17900,-,17900,16800,,,100,-,100.0,,,,1.0,,1,100.0,,100,-,
10/05/2024,3000000,3000000,17900,25000,10800,-,,54,17900,17900,17900,17900,-,17900,16800,,,50,-,100.0,,,,2.0,,2,100.0,,100,-,
09/05/2024,3000000,3000000,17900,25000,10800,-,,54,17900,17900,17900,17900,-,17900,16800,,,100,-,100.0,,,,1.0,,1,100.0,,100,-,
08/05/2024,3000000,3000000,17900,25000,10800,-,,54,17900,17900,17900,17900,-,17900,16800,,,100,-,100.0,,,,1.0,,1,100.0,,100,-,
07/05/2024,3000000,3000000,17900,25000,10800,-,,54,17900,17900,17900,17900,-,17900,16800,,,-,-,,,,,,,-,,,-,-,
06/05/2024,3000000,3000000,17900,25000,10800,-,,54,17900,17900,17900,17900,-,17900,16800,,,-,-,,,,,,,-,,,-,-,
03/05/2024,3000000,3000000,17900,25000,10800,-,,54,17900,17900,17900,17900,-,17900,16800,,,-,100,,100.0,,,,1.0,-1,,100.0,-100,-,
02/05/2024,3000000,3000000,17900,25000,10800,-,,54,17900,17900,17900,17900,-,17900,16800,,,-,100,,100.0,,,,1.0,-1,,100.0,-100,-,
26/04/2024,3000000,3000000,17900,25000,10800,-,,54,17900,17900,17900,17900,-,17900,16800,,,-,100,,100.0,,,,1.0,-1,,100.0,-100,-,
25/04/2024,3000000,3000000,17900,25000,10800,-,,54,17900,17900,17900,17900,-,17900,16800,,,-,100,,100.0,,,1.0,1.0,-,,100.0,-100,-,
24/04/2024,3000000,3000000,17900,25000,10800,-,,54,17900,17900,17900,17900,-,17900,16800,,,900,100,900.0,100.0,,,1.0,1.0,-,900.0,100.0,800,-,
23/04/2024,3000000,3000000,17900,25000,10800,-,,54,17900,17900,17900,17900,-,17900,16800,,,1200,100,1200.0,100.0,,,1.0,1.0,-,1200.0,100.0,1100,-,
22/04/2024,3000000,3000000,17900,25000,10800,-,,54,17900,17900,17900,17900,-,17900,16800,,,100,-,200.0,,,,2.0,,2,200.0,,200,-,
19/04/2024,3000000,3000000,17900,25000,10800,-,,54,17900,17900,17900,17900,-,17900,16800,,,-,100,,100.0,,,1.0,1.0,-,,100.0,-100,-,
17/04/2024,3000000,3000000,17900,25000,10800,-,,54,17900,17900,17900,17900,-,17900,16800,,,100,100,100.0,100.0,,,1.0,1.0,-,100.0,100.0,-,-,
16/04/2024,3000000,3000000,17900,25000,10800,-,,54,17900,17900,17900,17900,-,17900,16800,,,-,-,,,,,,,-,,,-,-,
15/04/2024,3000000,3000000,17900,25000,10800,-,,54,17900,17900,17900,17900,-,17900,16800,,,100,-,100.0,,,,1.0,,1,100.0,,100,-,
12/04/2024,3000000,3000000,17900,25000,10800,-,,54,17900,17900,17900,17900,-,17900,16800,,,100,-,100.0,,,,1.0,,1,100.0,,100,-,
11/04/2024,3000000,3000000,17900,25000,10800,-,,54,17900,17900,17900,17900,-,17900,16800,,,-,-,,,,,,,-,,,-,-,
10/04/2024,3000000,3000000,17900,25000,10800,-,,54,17900,17900,17900,17900,-,17900,16800,,,-,-,,,,,,,-,,,-,-,
09/04/2024,3000000,3000000,17900,25000,10800,-,,54,17900,17900,17900,17900,-,17900,16800,,,-,-,,,,,,,-,,,-,-,
08/04/2024,3000000,3000000,17900,25000,10800,-,,54,17900,17900,17900,17900,-,17900,16800,,,50,-,100.0,,,,2.0,,2,100.0,,100,-,
05/04/2024,3000000,3000000,17900,25000,10800,-,,54,17900,17900,17900,17900,-,17900,16800,,,-,-,,,,,,,-,,,-,-,
04/04/2024,3000000,3000000,17900,25000,10800,-,,54,17900,17900,17900,17900,-,17900,16800,,,-,-,,,,,1.0,,1,,,-,-,
03/04/2024,3000000,3000000,17900,25000,10800,-,,54,17900,17900,17900,17900,-,17900,16800,,,-,-,,,,,,,-,,,-,-,
02/04/2024,3000000,3000000,17900,25000,10800,-,,54,17900,17900,17900,17900,-,17900,16800,,,-,-,,,,,,,-,,,-,-,
01/04/2024,3000000,3000000,17900,25000,10800,-,,54,17900,17900,17900,17900,-,17900,16800,,,50,-,100.0,,,,2.0,,2,100.0,,100,-,
29/03/2024,3000000,3000000,17900,25000,10800,-,,54,17900,17900,17900,17900,-,17900,16800,,,100,-,100.0,,,,1.0,,1,100.0,,100,-,
28/03/2024,3000000,3000000,17900,25000,10800,-,,54,17900,17900,17900,17900,-,17900,16800,,,-,-,,,,,,,-,,,-,-,
27/03/2024,3000000,3000000,17900,25000,10800,-,,54,17900,17900,17900,17900,-,17900,16800,,,100,-,100.0,,,,1.0,,1,100.0,,100,-,
26/03/2024,3000000,3000000,17900,25000,10800,-,,54,17900,17900,17900,17900,-,17900,16800,,,-,-,,,,,,,-,,,-,-,
25/03/2024,3000000,3000000,17900,25000,10800,-,,54,17900,17900,17900,17900,-,17900,16800,,,-,-,,,,,,,-,,,-,-,
22/03/2024,3000000,3000000,17900,25000,10800,-,,54,17900,17900,17900,17900,-,17900,16800,,,100,-,100.0,,,,1.0,,1,100.0,,100,-,
21/03/2024,3000000,3000000,17900,25000,10800,-,,54,17900,17900,17900,17900,-,17900,16800,,,-,-,,,,,,,-,,,-,-,
20/03/2024,3000000,3000000,17900,25000,10800,-,,54,17900,17900,17900,17900,-,17900,16800,,,100,-,200.0,,,,2.0,,2,200.0,,200,-,
19/03/2024,3000000,3000000,17900,25000,10800,-,,54,17900,17900,17900,17900,-,17900,16800,,,100,-,200.0,,,,2.0,,2,200.0,,200,-,
18/03/2024,3000000,3000000,17900,25000,10800,-,,54,17900,17900,17900,17900,-,17900,16800,,,100,-,200.0,,,,2.0,,2,200.0,,200,-,
15/03/2024,3000000,3000000,17900,25000,10800,-,,54,17900,17900,17900,17900,-,17900,16800,,,100,-,200.0,,,,2.0,,2,200.0,,200,-,
14/03/2024,3000000,3000000,17900,25000,10800,-,,54,17900,17900,17900,17900,-,17900,16800,,,67,-,200.0,,,,3.0,,3,200.0,,200,-,
13/03/2024,3000000,3000000,17900,25000,10800,-,,54,17900,17900,17900,17900,-,17900,16800,,,100,-,100.0,,,,1.0,,1,100.0,,100,-,
12/03/2024,3000000,3000000,17900,25000,10800,-,,54,17900,17900,17900,17900,-,17900,16800,,,100,-,200.0,,,,2.0,,2,200.0,,200,-,
11/03/2024,3000000,3000000,17900,25000,10800,-,,54,17900,17900,17900,17900,-,17900,16800,,,100,-,100.0,,,,1.0,,1,100.0,,100,-,
08/03/2024,3000000,3000000,17900,25000,10800,-,,54,17900,17900,17900,17900,-,17900,16800,,,100,-,100.0,,,,1.0,,1,100.0,,100,-,
07/03/2024,3000000,3000000,17900,25000,10800,-,,54,17900,17900,17900,17900,-,17900,16800,,,100,-,100.0,,,,1.0,,1,100.0,,100,-,
06/03/2024,3000000,3000000,17900,25000,10800,-,,54,17900,17900,17900,17900,-,17900,16800,,,100,-,100.0,,,,1.0,,1,100.0,,100,-,
05/03/2024,3000000,3000000,17900,25000,10800,-,,54,17900,17900,17900,17900,-,17900,16800,,,100,-,100.0,,,,1.0,,1,100.0,,100,-,
04/03/2024,3000000,3000000,17900,25000,10800,-,,54,17900,17900,17900,17900,-,17900,16800,,,167,-,500.0,,,,3.0,,3,500.0,,500,-,
01/03/2024,3000000,3000000,17900,25000,10800,-,,54,17900,17900,17900,17900,-,17900,16800,,,100,-,100.0,,,,1.0,,1,100.0,,100,-,
29/02/2024,3000000,3000000,17900,25000,10800,-,,54,17900,17900,17900,17900,-,17900,16800,,,167,-,500.0,,,,3.0,,3,500.0,,500,-,
28/02/2024,3000000,3000000,17900,25000,10800,-,,54,17900,17900,17900,17900,-,17900,16800,,,100,-,200.0,,,,2.0,,2,200.0,,200,-,
27/02/2024,3000000,3000000,17900,25000,10800,-,,54,17900,17900,17900,17900,-,17900,16800,,,100,-,200.0,,,,2.0,,2,200.0,,200,-,
26/02/2024,3000000,3000000,17900,25000,10800,-,,54,17900,17900,17900,17900,-,17900,16800,,,100,-,200.0,,,,2.0,,2,200.0,,200,-,
23/02/2024,3000000,3000000,17900,25000,10800,-,,54,17900,17900,17900,17900,-,17900,16800,,,100,-,200.0,,,,2.0,,2,200.0,,200,-,
22/02/2024,3000000,3000000,17900,25000,10800,-,,54,17900,17900,17900,17900,-,17900,16800,,,100,-,100.0,,,,1.0,,1,100.0,,100,-,
21/02/2024,3000000,3000000,17900,25000,10800,-,,54,17900,17900,17900,17900,-,17900,16800,,,100,-,100.0,,,,1.0,,1,100.0,,100,-,
20/02/2024,3000000,3000000,17900,25000,10800,-,,54,17900,17900,17900,17900,-,17900,16800,,,100,-,100.0,,,,1.0,,1,100.0,,100,-,
19/02/2024,3000000,3000000,17900,25000,10800,-,,54,17900,17900,17900,17900,-,17900,16800,,,100,-,100.0,,,,1.0,,1,100.0,,100,-,
16/02/2024,3000000,3000000,17900,25000,10800,-,,54,17900,17900,17900,17900,-,17900,16800,,,100,-,100.0,,,,1.0,,1,100.0,,100,-,
15/02/2024,3000000,3000000,17900,25000,10800,-,,54,17900,17900,17900,17900,-,17900,16800,,,100,-,100.0,,,,1.0,,1,100.0,,100,-,
07/02/2024,3000000,3000000,17900,25000,10800,-,,54,17900,17900,17900,17900,-,17900,16800,,,67,-,200.0,,,,3.0,,3,200.0,,200,-,
06/02/2024,3000000,3000000,17900,25000,10800,-,,54,17900,17900,17900,17900,-,17900,16800,,,100,100,200.0,100.0,,,2.0,1.0,1,200.0,100.0,100,-,
05/02/2024,3000000,3000000,17900,25000,10800,-,,54,17900,17900,17900,17900,-,17900,16800,,,100,-,100.0,,,,1.0,,1,100.0,,100,-,
02/02/2024,3000000,3000000,17900,25000,10800,-,,54,17900,17900,17900,17900,-,17900,16800,,,100,-,100.0,,,,1.0,,1,100.0,,100,-,
01/02/2024,3000000,3000000,17900,25000,10800,-,,54,17900,17900,17900,17900,-,17900,16800,,,100,-,100.0,,,,1.0,,1,100.0,,100,-,
31/01/2024,3000000,3000000,17900,25000,10800,-,,54,17900,17900,17900,17900,-,17900,16800,,,100,-,100.0,,,,1.0,,1,100.0,,100,-,
30/01/2024,3000000,3000000,17900,25000,10800,-,,54,17900,17900,17900,17900,-,17900,16800,,,100,-,100.0,,,,1.0,,1,100.0,,100,-,
29/01/2024,3000000,3000000,17900,25000,10800,-,,54,17900,17900,17900,17900,-,17900,16800,,,100,-,100.0,,,,1.0,,1,100.0,,100,-,
26/01/2024,3000000,3000000,17900,25000,10800,-,,54,17900,17900,17900,17900,-,17900,16800,,,100,-,100.0,,,,1.0,,1,100.0,,100,-,
25/01/2024,3000000,3000000,17900,25000,10800,-,,54,17900,17900,17900,17900,-,17900,16800,,,100,-,100.0,,,,1.0,,1,100.0,,100,-,
24/01/2024,3000000,3000000,17900,25000,10800,-,,54,17900,17900,17900,17900,-,17900,16800,,,100,100,100.0,100.0,,,1.0,1.0,-,100.0,100.0,-,-,
23/01/2024,3000000,3000000,17900,25000,10800,-,,54,17900,17900,17900,17900,-,17900,16800,,,100,-,100.0,,,,1.0,,1,100.0,,100,-,
22/01/2024,3000000,3000000,17900,25000,10800,-,,54,17900,17900,17900,17900,-,17900,16800,,,100,-,100.0,,,,1.0,,1,100.0,,100,-,
19/01/2024,3000000,3000000,17900,25000,10800,-,,54,17900,17900,17900,17900,-,17900,16800,,,100,-,100.0,,,,1.0,,1,100.0,,100,-,
18/01/2024,3000000,3000000,17900,25000,10800,-,,54,17900,17900,17900,17900,-,17900,16800,,,100,100,100.0,100.0,,,1.0,1.0,-,100.0,100.0,-,-,
17/01/2024,3000000,3000000,17900,25000,10800,-,,54,17900,17900,17900,17900,-,17900,16800,,,100,-,100.0,,,,1.0,,1,100.0,,100,-,
16/01/2024,3000000,3000000,17900,25000,10800,-,,54,17900,17900,17900,17900,-,17900,16800,,,100,-,100.0,,,,1.0,,1,100.0,,100,-,
15/01/2024,3000000,3000000,17900,25000,10800,-,,54,17900,17900,17900,17900,-,17900,16800,,,100,-,100.0,,,,1.0,,1,100.0,,100,-,
12/01/2024,3000000,3000000,17900,25000,10800,-,,54,17900,17900,17900,17900,-,17900,16800,,,100,-,100.0,,,,1.0,,1,100.0,,100,-,
11/01/2024,3000000,3000000,17900,25000,10800,-,,54,17900,17900,17900,17900,-,17900,16800,,,100,-,100.0,,,,1.0,,1,100.0,,100,-,
10/01/2024,3000000,3000000,17900,25000,10800,-,,54,17900,17900,17900,17900,-,17900,16800,,,100,-,100.0,,,,1.0,,1,100.0,,100,-,
09/01/2024,3000000,3000000,17900,25000,10800,-,,54,17900,17900,17900,17900,-,17900,16800,,,100,-,100.0,,,,1.0,,1,100.0,,100,-,
08/01/2024,3000000,3000000,17900,25000,10800,-,,54,17900,17900,17900,17900,-,17900,16800,,,100,-,100.0,,,,1.0,,1,100.0,,100,-,
05/01/2024,3000000,3000000,17900,25000,10800,-,,54,17900,17900,17900,17900,-,17900,16800,,,100,-,100.0,,,,1.0,,1,100.0,,100,-,
04/01/2024,3000000,3000000,17900,25000,10800,-,,54,17900,17900,17900,17900,-,17900,16800,,,300,-,600.0,,,,2.0,,2,600.0,,600,-,
03/01/2024,3000000,3000000,17900,25000,10800,-,,54,17900,17900,17900,17900,-,17900,16800,,,-,-,,,,,,,-,,,-,-,
02/01/2024,3000000,3000000,17900,25000,10800,-,,54,17900,17900,17900,17900,-,17900,16800,,,-,-,,,,,,,-,,,-,-,
29/12/2023,3000000,3000000,17900,25000,10800,-,,54,17900,17900,17900,17900,-,17900,16800,,,-,-,,,,,,,-,,,-,-,
28/12/2023,3000000,3000000,17900,25000,10800,-,,54,17900,17900,17900,17900,-,17900,16800,,,-,-,,,,,,,-,,,-,-,
27/12/2023,3000000,3000000,17900,20500,15300,-,,54,17900,17900,17900,17900,-,17900,16800,,,-,-,,,,,2.0,,2,,,-,-,
26/12/2023,3000000,3000000,17900,20500,15300,-,,54,17900,17900,17900,17900,-,17900,16800,,,-,-,,,,,,,-,,,-,-,
25/12/2023,3000000,3000000,17900,20500,15300,-,,54,17900,17900,17900,17900,-,17900,16800,,,-,-,,,,,,,-,,,-,-,
22/12/2023,3000000,3000000,17900,20500,15300,-,,54,17900,17900,17900,17900,-,17900,16800,,,-,-,,,,,,,-,,,-,-,
21/12/2023,3000000,3000000,17900,20500,15300,-,,54,17900,17900,17900,17900,-,17900,16800,,,-,-,,,,,,,-,,,-,-,
20/12/2023,3000000,3000000,17900,20500,15300,-,,54,17900,17900,17900,17900,-,17900,16800,,,-,-,,,,,,,-,,,-,-,
19/12/2023,3000000,3000000,17900,20500,15300,-,,54,17900,17900,17900,17900,-,17900,16800,,,-,-,,,,,,,-,,,-,-,
18/12/2023,3000000,3000000,17900,20500,15300,-,,54,17900,17900,17900,17900,-,17900,16800,,,-,-,,,,,,,-,,,-,-,
15/12/2023,3000000,3000000,17900,20500,15300,-,,54,17900,17900,17900,17900,-,17900,16800,,,-,-,,,,,,,-,,,-,-,
14/12/2023,3000000,3000000,17900,20500,15300,-,,54,17900,17900,17900,17900,-,17900,16800,,,-,-,,,,,,,-,,,-,-,
13/12/2023,3000000,3000000,17900,20500,15300,-,,54,17900,17900,17900,17900,-,17900,16800,,,-,-,,,,,,,-,,,-,-,
12/12/2023,3000000,3000000,17900,20500,15300,-,,54,17900,17900,17900,17900,-,17900,16800,,,-,-,,,,,,,-,,,-,-,
11/12/2023,3000000,3000000,17900,20500,15300,-,,54,17900,17900,17900,17900,-,17900,16800,,,-,-,,,,,,,-,,,-,-,
08/12/2023,3000000,3000000,17900,20500,15300,-,,54,17900,17900,17900,17900,-,17900,16800,,,-,-,,,,,,,-,,,-,-,
07/12/2023,3000000,3000000,17900,20500,15300,-,,54,17900,17900,17900,17900,-,17900,16800,,,-,-,,,,,1.0,,1,,,-,-,
06/12/2023,3000000,3000000,17900,20500,15300,-,,54,17900,17900,17900,17900,-,17900,16800,,,-,-,,,,,,,-,,,-,-,
05/12/2023,3000000,3000000,17900,20500,15300,-,,54,17900,17900,17900,17900,-,17900,16800,,,-,-,,,,,,,-,,,-,-,
04/12/2023,3000000,3000000,17900,20500,15300,-,,54,17900,17900,17900,17900,-,17900,16800,,,-,-,,,,,,,-,,,-,-,
01/12/2023,3000000,3000000,17900,20500,15300,-,,54,17900,17900,17900,17900,-,17900,16800,,,-,-,,,,,,,-,,,-,-,
30/11/2023,3000000,3000000,17900,20500,15300,-,,54,17900,17900,17900,17900,-,17900,16800,,,-,-,,,,,,,-,,,-,-,
29/11/2023,3000000,3000000,17900,20500,15300,-,,54,17900,17900,17900,17900,-,17900,16800,,,-,-,,,,,,,-,,,-,-,
28/11/2023,3000000,3000000,17900,20500,15300,-,,54,17900,17900,17900,17900,-,17900,16800,,,-,-,,,,,,,-,,,-,-,
27/11/2023,3000000,3000000,17900,20500,15300,-,,54,17900,17900,17900,17900,-,17900,16800,,,2000,-,2000.0,,,,1.0,,1,2000.0,,2000,-,
24/11/2023,3000000,3000000,17900,20500,15300,-,,54,17900,17900,17900,17900,-,17900,16800,,,-,-,,,,,,,-,,,-,-,
23/11/2023,3000000,3000000,17900,20500,15300,-,,54,17900,17900,17900,17900,-,17900,16800,,,-,-,,,,,,,-,,,-,-,
22/11/2023,3000000,3000000,17900,20500,15300,-,,54,17900,17900,17900,17900,-,17900,16800,,,-,-,,,,,,,-,,,-,-,
21/11/2023,3000000,3000000,29700,41500,17900,100,2.0,54,17900,17900,17900,17900,-,17900,16800,-11800.0,-39.73,67,100,100.0,100.0,100.0,2.0,3.0,2.0,1,200.0,200.0,-,-,
20/11/2023,3000000,3000000,29700,41500,17900,-,,89,29700,29700,29700,29700,-,29700,27900,,,-,-,,,,,,,-,,,-,-,
17/11/2023,3000000,3000000,29700,41500,17900,-,,89,29700,29700,29700,29700,-,29700,27900,,,-,100,,100.0,,,,1.0,-1,,100.0,-100,-,
16/11/2023,3000000,3000000,29700,41500,17900,-,,89,29700,29700,29700,29700,-,29700,27900,,,-,100,,100.0,,,,1.0,-1,,100.0,-100,-,
15/11/2023,3000000,3000000,29700,41500,17900,-,,89,29700,29700,29700,29700,-,29700,27900,,,-,100,,100.0,,,,1.0,-1,,100.0,-100,-,
14/11/2023,3000000,3000000,29700,41500,17900,-,,89,29700,29700,29700,29700,-,29700,27900,,,-,100,,100.0,,,,1.0,-1,,100.0,-100,-,
13/11/2023,3000000,3000000,29700,41500,17900,-,,89,29700,29700,29700,29700,-,29700,27900,,,-,100,,100.0,,,,1.0,-1,,100.0,-100,-,
10/11/2023,3000000,3000000,29700,41500,17900,-,,89,29700,29700,29700,29700,-,29700,27900,,,-,100,,100.0,,,,1.0,-1,,100.0,-100,-,
09/11/2023,3000000,3000000,29700,34100,25300,-,,89,29700,29700,29700,29700,-,29700,27900,,,-,100,,100.0,,,,1.0,-1,,100.0,-100,-,
08/11/2023,3000000,3000000,29700,34100,25300,-,,89,29700,29700,29700,29700,-,29700,27900,,,-,100,,100.0,,,,1.0,-1,,100.0,-100,-,
07/11/2023,3000000,3000000,29700,34100,25300,-,,89,29700,29700,29700,29700,-,29700,27900,,,-,100,,100.0,,,,1.0,-1,,100.0,-100,-,
06/11/2023,3000000,3000000,29700,34100,25300,-,,89,29700,29700,29700,29700,-,29700,27900,,,-,100,,100.0,,,,1.0,-1,,100.0,-100,-,
03/11/2023,3000000,3000000,29700,34100,25300,-,,89,29700,29700,29700,29700,-,29700,27900,,,-,100,,200.0,,,,2.0,-2,,200.0,-200,-,
02/11/2023,3000000,3000000,29700,34100,25300,-,,89,29700,29700,29700,29700,-,29700,27900,,,-,100,,100.0,,,,1.0,-1,,100.0,-100,-,
01/11/2023,3000000,3000000,29700,34100,25300,-,,89,29700,29700,29700,29700,-,29700,27900,,,-,100,,200.0,,,,2.0,-2,,200.0,-200,-,
31/10/2023,3000000,3000000,29700,34100,25300,-,,89,29700,29700,29700,29700,-,29700,27900,,,-,100,,100.0,,,,1.0,-1,,100.0,-100,-,
30/10/2023,3000000,3000000,29700,34100,25300,-,,89,29700,29700,29700,29700,-,29700,27900,,,-,100,,100.0,,,,1.0,-1,,100.0,-100,-,
27/10/2023,3000000,3000000,29700,34100,25300,-,,89,29700,29700,29700,29700,-,29700,27900,,,-,100,,100.0,,,,1.0,-1,,100.0,-100,-,
26/10/2023,3000000,3000000,29700,34100,25300,-,,89,29700,29700,29700,29700,-,29700,27900,,,-,100,,100.0,,,,1.0,-1,,100.0,-100,-,
25/10/2023,3000000,3000000,29700,34100,25300,-,,89,29700,29700,29700,29700,-,29700,27900,,,-,100,,100.0,,,,1.0,-1,,100.0,-100,-,
24/10/2023,3000000,3000000,29700,34100,25300,-,,89,29700,29700,29700,29700,-,29700,27900,,,-,100,,100.0,,,,1.0,-1,,100.0,-100,-,
23/10/2023,3000000,3000000,29700,34100,25300,-,,89,29700,29700,29700,29700,-,29700,27900,,,-,100,,100.0,,,,1.0,-1,,100.0,-100,-,
20/10/2023,3000000,3000000,29700,34100,25300,-,,89,29700,29700,29700,29700,-,29700,27900,,,-,100,,100.0,,,,1.0,-1,,100.0,-100,-,
19/10/2023,3000000,3000000,29700,34100,25300,-,,89,29700,29700,29700,29700,-,29700,27900,,,-,100,,100.0,,,,1.0,-1,,100.0,-100,-,
18/10/2023,3000000,3000000,29700,34100,25300,-,,89,29700,29700,29700,29700,-,29700,27900,,,-,100,,100.0,,,,1.0,-1,,100.0,-100,-,
17/10/2023,3000000,3000000,29700,34100,25300,-,,89,29700,29700,29700,29700,-,29700,27900,,,-,100,,100.0,,,,1.0,-1,,100.0,-100,-,
16/10/2023,3000000,3000000,29700,34100,25300,-,,89,29700,29700,29700,29700,-,29700,27900,,,-,100,,100.0,,,,1.0,-1,,100.0,-100,-,
13/10/2023,3000000,3000000,29700,34100,25300,-,,89,29700,29700,29700,29700,-,29700,27900,,,-,-,,,,,,,-,,,-,-,
12/10/2023,3000000,3000000,29700,34100,25300,-,,89,29700,29700,29700,29700,-,29700,27900,,,-,100,,100.0,,,,1.0,-1,,100.0,-100,-,
11/10/2023,3000000,3000000,29700,34100,25300,-,,89,29700,29700,29700,29700,-,29700,27900,,,-,100,,200.0,,,,2.0,-2,,200.0,-200,-,
10/10/2023,3000000,3000000,29700,34100,25300,-,,89,29700,29700,29700,29700,-,29700,27900,,,-,-,,,,,,,-,,,-,-,
09/10/2023,3000000,3000000,29700,34100,25300,-,,89,29700,29700,29700,29700,-,29700,27900,,,-,-,,,,,,,-,,,-,-,
06/10/2023,3000000,3000000,29700,34100,25300,-,,89,29700,29700,29700,29700,-,29700,27900,,,-,-,,,,,,,-,,,-,-,
05/10/2023,3000000,3000000,29700,34100,25300,-,,89,29700,29700,29700,29700,-,29700,27900,,,-,-,,,,,,,-,,,-,-,
04/10/2023,3000000,3000000,29700,41500,17900,34100,1013.0,89,29700,29700,29700,29700,-,29700,27900,,,34100,17100,,100.0,34100.0,1013.0,1.0,2.0,-1,34100.0,34200.0,-100,-,
03/10/2023,3000000,3000000,29700,41500,17900,-,,89,29700,29700,29700,29700,-,29700,27900,,,-,100,,100.0,,,,1.0,-1,,100.0,-100,-,
